
n ; porownania(c); przestawienia(s); c/n; s/n;
10;35.0;19.0;3.5;1.9;
20;183.0;90.0;9.15;4.5;
30;198.0;95.0;6.6;3.1666666666666665;
40;315.0;122.0;7.875;3.05;
50;373.0;159.0;7.46;3.18;
60;483.0;210.0;8.05;3.5;
70;593.0;265.0;8.471428571428572;3.7857142857142856;
80;667.0;295.0;8.3375;3.6875;
90;926.0;400.0;10.28888888888889;4.444444444444445;
100;913.0;383.0;9.13;3.83;
110;971.0;383.0;8.827272727272728;3.481818181818182;
120;1175.0;493.0;9.791666666666666;4.108333333333333;
130;1315.0;565.0;10.115384615384615;4.346153846153846;
140;1645.0;704.0;11.75;5.0285714285714285;
150;1632.0;640.0;10.88;4.266666666666667;
160;1557.0;623.0;9.73125;3.89375;
170;1840.0;720.0;10.823529411764707;4.235294117647059;
180;2207.0;920.0;12.261111111111111;5.111111111111111;
190;2276.0;934.0;11.978947368421053;4.91578947368421;
200;2474.0;941.0;12.37;4.705;
1000;16892.0;5947.0;16.892;5.947;
2000;35267.0;13068.0;17.6335;6.534;
3000;59579.0;22181.0;19.859666666666666;7.393666666666666;
4000;83747.0;31700.0;20.93675;7.925;
5000;105317.0;40345.0;21.0634;8.069;
6000;131348.0;49108.0;21.891333333333332;8.184666666666667;
7000;147961.0;52426.0;21.137285714285714;7.489428571428571;
8000;185766.0;72134.0;23.22075;9.01675;
9000;197839.0;72019.0;21.98211111111111;8.00211111111111;
10000;219790.0;79986.0;21.979;7.9986;
11000;273514.0;104591.0;24.86490909090909;9.508272727272727;
12000;280197.0;103822.0;23.34975;8.651833333333334;
13000;306064.0;113584.0;23.543384615384614;8.73723076923077;
14000;363405.0;139109.0;25.9575;9.936357142857142;
15000;381384.0;145091.0;25.4256;9.672733333333333;
16000;416944.0;150301.0;26.059;9.3938125;
17000;435087.0;159005.0;25.59335294117647;9.353235294117647;
18000;469784.0;177560.0;26.09911111111111;9.864444444444445;
19000;486613.0;166550.0;25.61121052631579;8.76578947368421;
20000;501315.0;178480.0;25.06575;8.924;

n ; porownania(c); przestawienia(s); c/n; s/n;
10;36.5;19.1;3.65;1.9100000000000001;
20;103.2;46.5;5.16;2.325;
30;210.3;92.3;7.010000000000001;3.0766666666666667;
40;279.9;121.8;6.9975;3.045;
50;422.2;190.2;8.443999999999999;3.804;
60;509.5;214.7;8.491666666666667;3.578333333333333;
70;619.6;260.2;8.851428571428572;3.717142857142857;
80;726.0;314.2;9.075;3.9274999999999998;
90;794.6;319.8;8.828888888888889;3.5533333333333337;
100;1013.2;415.8;10.132;4.158;
110;1128.4;444.9;10.25818181818182;4.044545454545454;
120;1189.5;472.7;9.9125;3.9391666666666665;
130;1422.3;570.2;10.94076923076923;4.386153846153847;
140;1523.4;593.8;10.881428571428572;4.241428571428571;
150;1625.6;647.6;10.837333333333333;4.317333333333334;
160;1756.5;695.1;10.978125;4.344375;
170;2014.4;806.0;11.849411764705883;4.741176470588235;
180;2092.0;806.2;11.622222222222222;4.478888888888889;
190;2116.3;851.9;11.13842105263158;4.483684210526316;
200;2410.7;950.5;12.0535;4.7525;
1000;16485.0;6265.5;16.485;6.2655;
2000;37383.7;13822.0;18.69185;6.911;
3000;58772.8;21867.8;19.590933333333336;7.289266666666666;
4000;81742.8;30116.0;20.4357;7.529;
5000;107581.1;39611.7;21.51622;7.922339999999999;
6000;130817.3;48246.5;21.802883333333334;8.041083333333333;
7000;156164.8;55116.4;22.309257142857142;7.873771428571429;
8000;180799.8;66718.0;22.599974999999997;8.33975;
9000;214627.6;79678.5;23.84751111111111;8.853166666666667;
10000;233835.6;84507.0;23.38356;8.4507;
11000;264932.0;98020.9;24.08472727272727;8.91099090909091;
12000;292156.5;106532.0;24.346375;8.877666666666666;
13000;319418.1;117469.9;24.570623076923074;9.036146153846154;
14000;344982.1;126134.2;24.64157857142857;9.009585714285715;
15000;367062.7;132335.5;24.470846666666667;8.822366666666667;
16000;395368.4;143477.8;24.710525;8.9673625;
17000;430488.4;157781.2;25.32284705882353;9.28124705882353;
18000;449027.4;160999.6;24.945966666666667;8.944422222222222;
19000;483103.5;176381.0;25.4265;9.28321052631579;
20000;513179.8;188360.9;25.65899;9.418045;

n ; porownania(c); przestawienia(s); c/n; s/n;
10;38.53;19.99;3.853;1.9989999999999999;
20;109.22;50.75;5.461;2.5375;
30;197.72;88.65;6.5906666666666665;2.955;
40;291.26;128.74;7.281499999999999;3.2185;
50;399.79;171.55;7.9958;3.431;
60;503.16;210.44;8.386000000000001;3.5073333333333334;
70;618.52;257.06;8.836;3.672285714285714;
80;745.91;311.4;9.323875;3.8924999999999996;
90;852.86;346.51;9.476222222222223;3.850111111111111;
100;986.1;399.36;9.861;3.9936000000000003;
110;1129.92;458.33;10.272;4.166636363636363;
120;1248.45;506.89;10.40375;4.224083333333334;
130;1395.91;567.58;10.737769230769231;4.3660000000000005;
140;1503.82;609.5;10.741571428571428;4.353571428571429;
150;1661.18;669.0;11.074533333333333;4.46;
160;1802.0;720.27;11.2625;4.5016875;
170;1940.01;771.64;11.411823529411764;4.539058823529412;
180;2071.87;819.21;11.510388888888889;4.551166666666667;
190;2220.16;868.54;11.685052631578946;4.5712631578947365;
200;2338.29;935.04;11.69145;4.6752;
1000;16626.81;6290.9;16.626810000000003;6.2909;
2000;37444.59;13989.27;18.722295;6.994635000000001;
3000;59329.41;21949.38;19.77647;7.31646;
4000;82380.28;30252.91;20.59507;7.5632275;
5000;106788.21;39358.63;21.357642000000002;7.871726;
6000;131101.45;47891.36;21.85024166666667;7.981893333333334;
7000;156858.86;57537.29;22.40840857142857;8.219612857142858;
8000;181560.03;66375.0;22.69500375;8.296875;
9000;208427.33;76705.79;23.15859222222222;8.522865555555555;
10000;235797.27;86352.86;23.579727;8.635286;
11000;262351.69;96187.52;23.850153636363636;8.74432;
12000;287888.21;104944.45;23.990684166666668;8.745370833333332;
13000;315040.83;114493.79;24.23391;8.807214615384614;
14000;343219.9;124958.15;24.515707142857146;8.925582142857142;
15000;370530.43;135529.34;24.702028666666667;9.035289333333333;
16000;398822.64;145193.15;24.926415000000002;9.074571875;
17000;429392.34;156017.76;25.25837294117647;9.177515294117647;
18000;456433.12;166274.37;25.357395555555556;9.237465;
19000;484738.49;176114.55;25.512552105263158;9.269186842105263;
20000;512494.97;185817.41;25.6247485;9.2908705;
